"teta [deg]","Matrix1.L(Current1,Current1)/50 []"
-180,23.8192005781826
-179,23.7783067122234
-178,23.769763669124
-177,23.7045218767179
-176,23.6098512196909
-175,23.5197881276226
-174,23.4053757727347
-173,23.3250704265075
-172,23.1799401372024
-171,22.9670706652935
-170,22.8192052455028
-169,22.6701293115997
-168,22.5226193700182
-167,22.3398557431367
-166,22.1310011745819
-165,21.9322663123632
-164,21.7981735861375
-163,21.6286325274836
-162,21.4215009462971
-161,21.1697616650128
-160,21.0302504485121
-159,20.8693041541619
-158,20.6650284779953
-157,20.463144806859
-156,20.2278197008769
-155,20.0436359242726
-154,19.8802410146198
-153,19.6610962010166
-152,19.4441327388321
-151,19.2369748180374
-150,19.0508095773422
-149,18.8579306646155
-148,18.6341881746284
-147,18.4039465739897
-146,18.2024203143742
-145,17.9977645171904
-144,17.8081557632654
-143,17.582433021496
-142,17.3340513982732
-141,17.0803204509539
-140,16.9248642012479
-139,16.7357447057632
-138,16.5095209741265
-137,16.242494058365
-136,15.992864551896
-135,15.8424475104454
-134,15.6544054370485
-133,15.4231322757349
-132,15.1687998435151
-131,15.0017169547115
-130,14.7496744755334
-129,14.5384270897327
-128,14.3080883469817
-127,14.1095147907475
-126,13.89530741433
-125,13.6385732227599
-124,13.4147247709031
-123,13.1714572746698
-122,12.9143484434255
-121,12.685384620699
-120,12.4897045701177
-119,12.2714518660943
-118,12.0268450725951
-117,11.8040834004897
-116,11.6031322670528
-115,11.345301024767
-114,11.1060666844374
-113,10.8679539862217
-112,10.6749038488788
-111,10.4564675676174
-110,10.1672932643353
-109,9.98520490431671
-108,9.75618899082711
-107,9.50700526401964
-106,9.28437612786931
-105,9.0733515672521
-104,8.8203120616088
-103,8.66830548971784
-102,8.46854713903127
-101,8.33880707922409
-100,8.28328627596099
-99,8.17530429478116
-98,8.10058061748185
-97,8.04099061040606
-96,8.00246910937128
-95,7.95723630848104
-94,7.93873432395007
-93,7.91379264222469
-92,7.89291356803847
-91,7.88728244504925
-90,7.88646059021809
-89,7.88228469481823
-88,7.89758541574659
-87,7.90601651661864
-86,7.93275499485276
-85,7.95841280384864
-84,7.99191709758611
-83,8.0312050014817
-82,8.10098856681856
-81,8.18571747823224
-80,8.28153645089841
-79,8.33649636849489
-78,8.52793846755745
-77,8.65395002431661
-76,8.81772087304284
-75,9.02692547351917
-74,9.28755130145263
-73,9.51661641870971
-72,9.76395366029351
-71,9.98573391893659
-70,10.1830957516657
-69,10.4521970359612
-68,10.6811936488616
-67,10.8712644585762
-66,11.120468947629
-65,11.3462086538177
-64,11.6022266740184
-63,11.8159511825754
-62,12.0306785333663
-61,12.2832432008588
-60,12.492238188033
-59,12.7248909396575
-58,12.9322527186893
-57,13.1678846981177
-56,13.4174876505981
-55,13.6353527501382
-54,13.8934772520849
-53,14.112462835193
-52,14.301235020489
-51,14.5232757924512
-50,14.7461894915806
-49,15.0045287686144
-48,15.2256098891621
-47,15.4157891033296
-46,15.6517091377574
-45,15.8603493715368
-44,16.0537560374297
-43,16.2604967883904
-42,16.5067438095924
-41,16.731191326552
-40,16.9275716767429
-39,17.0809623477783
-38,17.3326959633431
-37,17.5781511996371
-36,17.8082125418921
-35,17.9904917742776
-34,18.2010383830324
-33,18.3944910465314
-32,18.6344636495392
-31,18.85795207879
-30,19.0581600488118
-29,19.2275790677779
-28,19.4278700297229
-27,19.6707149434075
-26,19.8833365683746
-25,20.0522264653978
-24,20.2464174427856
-23,20.4578568093889
-22,20.6611613354231
-21,20.8687595414261
-20,20.9802649114149
-19,21.2075549008105
-18,21.4189989735061
-17,21.6315659104867
-16,21.8022119678075
-15,21.9464097093071
-14,22.1251753626761
-13,22.334737030712
-12,22.5250656769396
-11,22.6750837985971
-10,22.815188783986
-9,22.9753157743826
-8,23.1403212080627
-7,23.3328281205398
-6,23.4078510315712
-5,23.5312178640024
-4,23.5838724642066
-3,23.7072694839909
-2,23.7746788099314
-1,23.7929817833773
0,23.8192005781912
1,23.7783067122208
2,23.7697636691205
3,23.7045218767186
4,23.6098512196924
5,23.4946288095585
6,23.4053757727309
7,23.3251787362351
8,23.1757601178921
9,22.9760186773245
10,22.8192052455028
11,22.670129311601
12,22.5226193700259
13,22.3398557431355
14,22.1310011745752
15,21.9322663123592
16,21.7981735861336
17,21.6286325274845
18,21.4215009462945
19,21.1697616650128
20,21.0302504485137
21,20.8693041541617
22,20.6650284779966
23,20.4631448068595
24,20.2278197008761
25,20.0436359242731
26,19.8802410146212
27,19.661096201017
28,19.4441327388345
29,19.2369748180377
30,19.0508095773476
31,18.8579306646152
32,18.6341881746266
33,18.4039465739913
34,18.2024203143746
35,17.9977645171918
36,17.8081557632676
37,17.582433021496
38,17.3340513982757
39,17.0803204509539
40,16.9248642012483
41,16.7357447057632
42,16.5095209741249
43,16.2424940583656
44,15.9928645518965
45,15.8424475104439
46,15.6544054370485
47,15.4231322757352
48,15.1683765578073
49,15.0033069181796
50,14.7496744755337
51,14.5385789995229
52,14.30808834698
53,14.1095147907478
54,13.8953074143304
55,13.6385732227594
56,13.414724770903
57,13.1714572746693
58,12.9143484434251
59,12.6853846206985
60,12.4897045701174
61,12.271451866094
62,12.0268450725955
63,11.8040834004927
64,11.6031322670527
65,11.345301024767
66,11.1060666844377
67,10.8679539862217
68,10.6749038488788
69,10.4564675676174
70,10.1672932643354
71,9.98520490431681
72,9.75618899082723
73,9.50700526401959
74,9.2843761278693
75,9.07335156725191
76,8.8203120616088
77,8.66830548971784
78,8.46854713903105
79,8.34024160700559
80,8.28328627596099
81,8.17530429478116
82,8.10058117769861
83,8.04095645122572
84,8.00246849729991
85,7.95723803602735
86,7.93873432395007
87,7.91379264222469
88,7.89291356803864
89,7.88728244504925
90,7.88646059021809
91,7.88228469481823
92,7.89758541574659
93,7.90601651661869
94,7.93275499485281
95,7.95841280384857
96,7.99191709758611
97,8.03120500148165
98,8.1009885668186
99,8.18571747823221
100,8.28295910881339
101,8.34608604249483
102,8.52793846755751
103,8.65395002431666
104,8.81772087304269
105,9.02692547351917
106,9.28755016865721
107,9.51661641870987
108,9.76395366029349
109,9.98573391893756
110,10.1830957516661
111,10.452197035961
112,10.6811936488616
113,10.8712644585762
114,11.1204689476286
115,11.3462086538177
116,11.6027486817011
117,11.8159511825752
118,12.0306785333663
119,12.2832432008594
120,12.492238188033
121,12.7248909396566
122,12.9322527186904
123,13.1678846981165
124,13.4174876505989
125,13.6353527501395
126,13.8934772520849
127,14.1124628351933
128,14.3012350204866
129,14.5232757924532
130,14.7461894915804
131,15.0045287686144
132,15.2256098891617
133,15.415789103327
134,15.6517091377599
135,15.8603493715365
136,16.0533563210764
137,16.260496788391
138,16.5067438095928
139,16.7348881872484
140,16.9246233915089
141,17.0809623477783
142,17.3301536995001
143,17.5781511996371
144,17.8081968751969
145,17.9894261818156
146,18.2010138826837
147,18.3944910465311
148,18.6344636495392
149,18.8579520787892
150,19.0581600488076
151,19.2275790677787
152,19.427870029724
153,19.6706856935906
154,19.8834030049456
155,20.0525381309321
156,20.2464174427856
157,20.4578568093901
158,20.6611613354231
159,20.8687595414286
160,20.9802649114155
161,21.2075549008122
162,21.4189989735026
163,21.6315659104867
164,21.8022119678107
165,21.9464097093071
166,22.1251753626756
167,22.3347370307081
168,22.525065676939
169,22.6750837985991
170,22.815188783986
171,22.9753157743826
172,23.1403212080617
173,23.33282812054
174,23.40785103157
175,23.5346625343597
176,23.5838724641985
177,23.7072694839952
178,23.7746788099296
179,23.7929817833809
180,23.8192005781831
